# Wavelength Flux
3.750008e+03 4.304557e-01
3.750023e+03 4.294697e-01
3.750038e+03 4.032927e-01
3.750052e+03 3.862919e-01
3.750067e+03 3.685390e-01
3.750081e+03 3.452843e-01
3.750096e+03 3.471902e-01
3.750111e+03 3.479500e-01
3.750125e+03 3.468632e-01
3.750140e+03 3.360606e-01
3.750155e+03 3.344024e-01
3.750169e+03 3.420124e-01
3.750184e+03 3.446390e-01
3.750199e+03 3.481088e-01
3.750213e+03 3.521065e-01
3.750228e+03 3.644466e-01
3.750243e+03 3.815055e-01
3.750257e+03 4.008978e-01
3.750272e+03 4.174716e-01
3.750286e+03 4.343529e-01
3.750301e+03 4.522131e-01
3.750316e+03 4.748470e-01
3.750331e+03 5.017223e-01
3.750345e+03 5.306705e-01
3.750360e+03 5.664424e-01
3.750375e+03 5.822014e-01
3.750389e+03 5.995845e-01
3.750404e+03 6.232563e-01
3.750418e+03 6.472367e-01
3.750433e+03 6.638971e-01
3.750448e+03 6.697417e-01
3.750462e+03 6.934608e-01
3.750477e+03 7.044751e-01
3.750492e+03 7.053381e-01
3.750506e+03 7.129393e-01
3.750521e+03 7.223120e-01
3.750536e+03 7.318763e-01
3.750550e+03 7.190349e-01
3.750565e+03 7.275736e-01
3.750580e+03 7.373074e-01
3.750594e+03 7.085518e-01
3.750609e+03 7.064798e-01
3.750623e+03 7.042462e-01
3.750638e+03 6.808928e-01
3.750653e+03 6.995822e-01
3.750667e+03 7.177377e-01
3.750682e+03 7.273071e-01
3.750697e+03 7.377923e-01
3.750711e+03 7.504685e-01
3.750726e+03 7.672991e-01
3.750741e+03 7.659077e-01
3.750755e+03 7.682698e-01
3.750770e+03 7.728712e-01
3.750784e+03 7.966039e-01
3.750799e+03 7.802001e-01
3.750814e+03 7.441161e-01
3.750829e+03 7.018988e-01
3.750843e+03 6.825317e-01
3.750858e+03 6.711646e-01
3.750873e+03 6.610582e-01
3.750887e+03 6.947654e-01
3.750902e+03 7.355772e-01
3.750917e+03 7.778155e-01
3.750931e+03 8.118268e-01
3.750946e+03 8.321719e-01
3.750960e+03 8.263844e-01
3.750975e+03 8.437099e-01
3.750990e+03 8.510327e-01
3.751004e+03 8.475934e-01
3.751019e+03 8.481511e-01
3.751034e+03 8.556709e-01
3.751048e+03 8.669773e-01
3.751063e+03 8.488399e-01
3.751078e+03 8.419636e-01
3.751092e+03 8.494406e-01
3.751107e+03 9.708288e-01
3.751121e+03 9.378313e-01
3.751136e+03 8.887203e-01
3.751151e+03 8.844374e-01
3.751165e+03 8.724766e-01
3.751180e+03 8.695310e-01
3.751195e+03 8.878275e-01
3.751209e+03 8.825197e-01
3.751224e+03 8.791037e-01
3.751239e+03 8.773687e-01
3.751254e+03 8.859435e-01
3.751268e+03 8.912500e-01
3.751283e+03 8.954738e-01
3.751297e+03 9.293787e-01
3.751312e+03 9.611120e-01
3.751327e+03 9.891173e-01
3.751341e+03 9.860741e-01
3.751356e+03 9.647973e-01
3.751371e+03 9.448082e-01
3.751385e+03 9.500700e-01
3.751400e+03 9.327695e-01
3.751415e+03 9.133824e-01
3.751429e+03 8.899835e-01
3.751444e+03 8.952720e-01
3.751458e+03 8.958105e-01
3.751473e+03 8.916440e-01
3.751488e+03 8.846960e-01
3.751502e+03 8.638087e-01
3.751517e+03 8.324063e-01
3.751532e+03 7.638960e-01
3.751546e+03 6.817889e-01
3.751561e+03 5.987287e-01
3.751576e+03 5.376289e-01
3.751590e+03 5.455948e-01
3.751605e+03 5.804085e-01
3.751620e+03 6.595401e-01
3.751634e+03 7.405602e-01
3.751649e+03 8.078740e-01
3.751663e+03 8.536144e-01
3.751678e+03 8.863065e-01
3.751693e+03 9.069513e-01
3.751707e+03 9.166007e-01
3.751722e+03 9.077488e-01
3.751737e+03 9.050632e-01
3.751752e+03 9.027250e-01
3.751766e+03 8.806704e-01
3.751781e+03 8.767069e-01
3.751795e+03 8.759120e-01
3.751810e+03 8.691022e-01
3.751825e+03 8.899803e-01
3.751839e+03 9.077423e-01
3.751854e+03 9.132119e-01
3.751869e+03 9.273670e-01
3.751883e+03 9.408288e-01
3.751898e+03 9.544385e-01
3.751913e+03 9.424093e-01
3.751927e+03 9.466943e-01
3.751942e+03 9.577082e-01
3.751957e+03 9.412566e-01
3.751971e+03 9.383861e-01
3.751986e+03 9.398148e-01
3.752000e+03 9.466398e-01
3.752015e+03 9.613393e-01
3.752030e+03 9.705718e-01
3.752044e+03 9.649159e-01
3.752059e+03 9.511919e-01
3.752074e+03 9.502977e-01
3.752088e+03 9.665156e-01
3.752103e+03 9.525883e-01
3.752118e+03 9.497359e-01
3.752132e+03 9.523123e-01
3.752147e+03 9.470666e-01
3.752162e+03 9.446667e-01
3.752176e+03 9.443590e-01
3.752191e+03 9.543408e-01
3.752206e+03 9.467757e-01
3.752220e+03 9.418296e-01
3.752235e+03 9.492049e-01
3.752250e+03 9.459630e-01
3.752264e+03 9.502739e-01
3.752279e+03 9.648995e-01
3.752294e+03 9.579571e-01
3.752308e+03 9.469450e-01
3.752323e+03 9.334097e-01
3.752337e+03 9.426736e-01
3.752352e+03 9.089029e-01
3.752367e+03 8.733877e-01
3.752381e+03 8.941117e-01
3.752396e+03 8.752649e-01
3.752411e+03 8.544909e-01
3.752425e+03 8.362941e-01
3.752440e+03 8.302017e-01
3.752455e+03 8.092704e-01
3.752469e+03 7.724823e-01
3.752484e+03 7.174146e-01
3.752499e+03 6.973845e-01
3.752513e+03 6.991357e-01
3.752528e+03 7.511088e-01
3.752542e+03 7.926002e-01
3.752557e+03 8.318551e-01
3.752572e+03 8.685946e-01
3.752586e+03 8.820021e-01
3.752601e+03 8.877906e-01
3.752616e+03 8.849156e-01
3.752630e+03 8.640140e-01
3.752645e+03 8.234143e-01
3.752660e+03 7.654688e-01
3.752674e+03 7.563794e-01
3.752689e+03 7.861722e-01
3.752704e+03 8.315966e-01
3.752718e+03 8.605420e-01
3.752733e+03 8.778941e-01
3.752748e+03 8.891278e-01
3.752762e+03 8.959039e-01
3.752777e+03 8.557499e-01
3.752792e+03 7.912141e-01
3.752806e+03 6.955029e-01
3.752821e+03 6.087626e-01
3.752836e+03 5.391463e-01
3.752850e+03 4.856313e-01
3.752865e+03 5.129920e-01
3.752879e+03 5.881444e-01
3.752894e+03 6.795910e-01
3.752909e+03 7.744954e-01
3.752923e+03 8.408471e-01
3.752938e+03 8.884993e-01
3.752953e+03 9.059414e-01
3.752967e+03 9.217739e-01
3.752982e+03 9.383397e-01
3.752997e+03 9.551702e-01
3.753011e+03 9.550970e-01
3.753026e+03 9.580699e-01
3.753041e+03 9.616592e-01
3.753055e+03 9.679637e-01
3.753070e+03 9.624517e-01
3.753084e+03 9.562361e-01
3.753099e+03 9.533536e-01
3.753114e+03 9.393076e-01
3.753129e+03 9.397231e-01
3.753143e+03 9.568393e-01
3.753158e+03 9.394436e-01
3.753173e+03 9.974499e-01
3.753187e+03 1.080641e+00
3.753202e+03 1.059694e+00
3.753216e+03 1.020344e+00
3.753231e+03 9.810609e-01
3.753246e+03 9.585055e-01
3.753260e+03 9.742894e-01
3.753275e+03 9.716960e-01
3.753290e+03 9.410406e-01
3.753304e+03 9.368923e-01
3.753319e+03 9.360815e-01
3.753334e+03 9.371817e-01
3.753348e+03 9.221917e-01
3.753363e+03 9.285007e-01
3.753378e+03 9.363778e-01
3.753392e+03 9.246912e-01
3.753407e+03 9.876689e-01
3.753421e+03 9.873798e-01
3.753436e+03 8.830432e-01
3.753451e+03 7.956289e-01
3.753465e+03 7.126346e-01
3.753480e+03 6.343758e-01
3.753495e+03 5.819404e-01
3.753509e+03 5.732391e-01
3.753524e+03 5.813363e-01
3.753539e+03 6.118933e-01
3.753553e+03 5.900682e-01
3.753568e+03 5.472276e-01
3.753583e+03 4.734700e-01
3.753597e+03 4.290278e-01
3.753612e+03 4.330211e-01
3.753627e+03 4.734048e-01
3.753641e+03 5.613636e-01
3.753656e+03 6.516783e-01
3.753671e+03 7.263490e-01
3.753685e+03 7.306883e-01
3.753700e+03 7.206771e-01
3.753715e+03 7.000923e-01
3.753729e+03 6.630941e-01
3.753744e+03 6.605536e-01
3.753758e+03 6.945255e-01
3.753773e+03 7.543091e-01
3.753788e+03 8.275790e-01
3.753802e+03 8.762044e-01
3.753817e+03 9.161850e-01
3.753832e+03 9.492058e-01
3.753846e+03 9.574497e-01
3.753861e+03 9.646933e-01
3.753876e+03 9.738799e-01
3.753890e+03 9.550161e-01
3.753905e+03 9.541900e-01
3.753920e+03 9.639605e-01
3.753934e+03 9.869819e-01
3.753949e+03 9.920268e-01
3.753963e+03 9.927576e-01
3.753978e+03 9.912432e-01
3.753993e+03 9.909579e-01
3.754007e+03 9.894220e-01
3.754022e+03 9.861037e-01
3.754037e+03 9.868175e-01
3.754052e+03 9.958413e-01
3.754066e+03 1.005615e+00
3.754081e+03 9.783683e-01
3.754095e+03 9.896564e-01
3.754110e+03 1.001648e+00
3.754125e+03 1.000207e+00
3.754139e+03 9.971685e-01
3.754154e+03 9.962927e-01
3.754169e+03 9.976500e-01
3.754183e+03 9.874155e-01
3.754198e+03 9.888079e-01
3.754213e+03 9.921876e-01
3.754227e+03 9.811512e-01
3.754242e+03 9.800792e-01
3.754257e+03 9.815933e-01
3.754271e+03 9.873586e-01
3.754286e+03 9.787225e-01
3.754300e+03 9.770204e-01
3.754315e+03 9.803472e-01
3.754330e+03 9.852833e-01
3.754344e+03 9.888749e-01
3.754359e+03 9.896421e-01
3.754374e+03 9.800180e-01
3.754388e+03 9.755120e-01
3.754403e+03 9.720981e-01
3.754418e+03 9.707093e-01
3.754432e+03 9.504096e-01
3.754447e+03 9.329177e-01
3.754461e+03 9.145949e-01
3.754476e+03 8.785868e-01
3.754491e+03 8.573939e-01
3.754506e+03 8.458153e-01
3.754520e+03 8.528023e-01
3.754535e+03 8.614467e-01
3.754550e+03 8.670122e-01
3.754564e+03 8.697439e-01
3.754579e+03 8.764014e-01
3.754594e+03 8.967027e-01
3.754608e+03 9.207853e-01
3.754623e+03 9.428694e-01
3.754637e+03 9.385544e-01
3.754652e+03 9.379997e-01
3.754667e+03 9.468841e-01
3.754681e+03 9.636829e-01
3.754696e+03 9.716112e-01
3.754711e+03 9.737080e-01
3.754725e+03 9.646941e-01
3.754740e+03 9.685336e-01
3.754755e+03 9.682770e-01
3.754769e+03 9.488028e-01
3.754784e+03 9.570015e-01
3.754798e+03 9.455898e-01
3.754813e+03 9.154856e-01
3.754828e+03 9.059116e-01
3.754842e+03 9.050694e-01
3.754857e+03 9.110511e-01
3.754872e+03 9.342582e-01
3.754886e+03 9.316179e-01
3.754901e+03 9.418029e-01
3.754916e+03 9.618508e-01
3.754930e+03 1.350667e+00
3.754945e+03 1.261873e+00
3.754960e+03 9.640070e-01
3.754974e+03 9.709437e-01
3.754989e+03 9.700678e-01
3.755004e+03 9.738216e-01
3.755018e+03 9.765932e-01
3.755033e+03 9.834687e-01
3.755048e+03 9.821786e-01
3.755062e+03 9.750208e-01
3.755077e+03 9.846539e-01
3.755092e+03 9.746068e-01
3.755106e+03 9.651064e-01
3.755121e+03 9.760789e-01
3.755136e+03 9.683484e-01
3.755150e+03 9.663349e-01
3.755165e+03 9.717817e-01
3.755179e+03 9.534274e-01
3.755194e+03 9.280888e-01
3.755209e+03 9.027773e-01
3.755223e+03 9.011624e-01
3.755238e+03 8.631719e-01
3.755253e+03 8.344484e-01
3.755267e+03 8.250064e-01
3.755282e+03 8.238626e-01
3.755297e+03 8.477110e-01
3.755311e+03 8.855854e-01
3.755326e+03 9.260959e-01
3.755340e+03 9.436265e-01
3.755355e+03 9.539687e-01
3.755370e+03 9.560598e-01
3.755384e+03 9.658807e-01
3.755399e+03 9.613866e-01
3.755414e+03 9.477152e-01
3.755429e+03 9.506019e-01
3.755443e+03 9.531163e-01
3.755458e+03 9.576988e-01
3.755473e+03 9.676629e-01
3.755487e+03 9.736778e-01
3.755502e+03 9.728232e-01
3.755516e+03 9.653756e-01
3.755531e+03 9.521050e-01
3.755546e+03 9.257907e-01
3.755560e+03 8.978930e-01
3.755575e+03 8.805696e-01
3.755590e+03 8.477705e-01
3.755604e+03 8.458006e-01
3.755619e+03 8.802036e-01
3.755634e+03 9.181317e-01
3.755648e+03 9.344973e-01
3.755663e+03 9.429215e-01
3.755677e+03 9.515957e-01
3.755692e+03 9.509456e-01
3.755707e+03 9.498048e-01
3.755721e+03 9.482205e-01
3.755736e+03 9.804940e-01
3.755751e+03 9.813344e-01
3.755765e+03 9.708750e-01
3.755780e+03 9.673274e-01
3.755795e+03 9.747529e-01
3.755809e+03 9.856897e-01
3.755824e+03 1.001082e+00
3.755839e+03 9.999092e-01
3.755853e+03 9.947622e-01
3.755868e+03 9.878029e-01
3.755883e+03 9.874372e-01
3.755897e+03 9.729642e-01
3.755912e+03 9.690369e-01
3.755927e+03 9.875003e-01
3.755941e+03 9.943762e-01
3.755956e+03 9.921221e-01
3.755971e+03 9.839011e-01
3.755985e+03 9.696953e-01
3.756000e+03 9.636266e-01
3.756014e+03 9.490777e-01
3.756029e+03 9.156996e-01
3.756044e+03 8.924145e-01
3.756058e+03 8.697173e-01
3.756073e+03 8.533415e-01
3.756088e+03 8.877252e-01
3.756102e+03 9.167098e-01
3.756117e+03 9.441622e-01
3.756132e+03 9.689347e-01
3.756146e+03 9.784500e-01
3.756161e+03 9.866174e-01
3.756176e+03 9.929465e-01
3.756190e+03 9.957622e-01
3.756205e+03 9.844239e-01
3.756219e+03 9.763766e-01
3.756234e+03 9.794667e-01
3.756249e+03 9.861088e-01
3.756263e+03 9.869820e-01
3.756278e+03 9.847166e-01
3.756293e+03 9.804527e-01
3.756307e+03 1.008527e+00
3.756322e+03 1.009278e+00
3.756337e+03 9.444147e-01
3.756351e+03 9.220034e-01
3.756366e+03 8.998833e-01
3.756381e+03 8.815220e-01
3.756395e+03 8.827676e-01
3.756410e+03 9.015103e-01
3.756425e+03 9.224777e-01
3.756439e+03 9.421803e-01
3.756454e+03 9.664065e-01
3.756469e+03 9.707587e-01
3.756483e+03 9.619746e-01
3.756498e+03 9.337455e-01
3.756513e+03 9.177474e-01
3.756527e+03 9.103386e-01
3.756542e+03 9.150776e-01
3.756556e+03 9.296365e-01
3.756571e+03 9.442883e-01
3.756586e+03 9.588860e-01
3.756600e+03 9.707504e-01
3.756615e+03 9.830375e-01
3.756630e+03 9.916423e-01
3.756644e+03 9.950079e-01
3.756659e+03 9.909780e-01
3.756674e+03 9.815619e-01
3.756688e+03 9.738951e-01
3.756703e+03 9.904828e-01
3.756718e+03 9.749639e-01
3.756732e+03 9.695436e-01
3.756747e+03 9.792544e-01
3.756761e+03 9.604282e-01
3.756776e+03 9.382216e-01
3.756791e+03 9.182541e-01
3.756806e+03 9.147533e-01
3.756820e+03 9.071638e-01
3.756835e+03 9.077087e-01
3.756850e+03 9.163578e-01
3.756864e+03 9.194166e-01
3.756879e+03 8.911641e-01
3.756893e+03 8.553391e-01
3.756908e+03 8.224909e-01
3.756923e+03 7.903845e-01
3.756937e+03 7.956689e-01
3.756952e+03 8.317521e-01
3.756967e+03 8.777551e-01
3.756981e+03 9.074739e-01
3.756996e+03 9.318545e-01
3.757011e+03 9.505965e-01
3.757025e+03 9.744139e-01
3.757040e+03 9.830417e-01
3.757055e+03 9.822382e-01
3.757069e+03 9.806492e-01
3.757084e+03 9.818612e-01
3.757098e+03 9.865890e-01
3.757113e+03 9.976518e-01
3.757128e+03 9.855639e-01
3.757142e+03 9.794189e-01
3.757157e+03 9.756482e-01
3.757172e+03 9.738472e-01
3.757186e+03 9.672221e-01
3.757201e+03 9.618561e-01
3.757216e+03 9.584813e-01
3.757230e+03 9.549932e-01
3.757245e+03 9.411551e-01
3.757260e+03 9.230381e-01
3.757274e+03 9.062610e-01
3.757289e+03 8.501066e-01
3.757304e+03 7.823771e-01
3.757318e+03 7.015623e-01
3.757333e+03 5.488160e-01
3.757348e+03 4.656177e-01
3.757362e+03 4.273355e-01
3.757377e+03 4.597458e-01
3.757392e+03 5.257114e-01
3.757406e+03 6.105027e-01
3.757421e+03 7.005978e-01
3.757435e+03 7.431195e-01
3.757450e+03 7.716438e-01
3.757465e+03 7.937104e-01
3.757479e+03 8.103277e-01
3.757494e+03 7.918139e-01
3.757509e+03 7.723943e-01
3.757523e+03 7.615501e-01
3.757538e+03 7.932093e-01
3.757553e+03 8.057902e-01
3.757567e+03 8.213622e-01
3.757582e+03 8.380246e-01
3.757597e+03 8.082064e-01
3.757611e+03 7.459083e-01
3.757626e+03 6.670585e-01
3.757640e+03 5.699828e-01
3.757655e+03 4.602522e-01
3.757670e+03 3.989298e-01
3.757684e+03 3.778549e-01
3.757699e+03 4.328985e-01
3.757714e+03 5.152938e-01
3.757729e+03 6.130444e-01
3.757743e+03 7.279972e-01
3.757758e+03 7.628159e-01
3.757772e+03 7.853463e-01
3.757787e+03 7.970901e-01
3.757802e+03 7.935911e-01
3.757816e+03 7.949645e-01
3.757831e+03 8.087271e-01
3.757846e+03 8.331744e-01
3.757860e+03 8.570994e-01
3.757875e+03 8.813899e-01
3.757890e+03 9.037417e-01
3.757904e+03 9.229714e-01
3.757919e+03 9.210965e-01
3.757934e+03 9.231473e-01
3.757948e+03 9.242274e-01
3.757963e+03 9.124559e-01
3.757977e+03 9.035916e-01
3.757992e+03 8.949690e-01
3.758007e+03 8.867141e-01
3.758021e+03 8.872185e-01
3.758036e+03 8.741347e-01
3.758051e+03 8.575491e-01
3.758065e+03 8.427231e-01
3.758080e+03 7.983925e-01
3.758095e+03 7.612814e-01
3.758109e+03 7.222853e-01
3.758124e+03 6.409173e-01
3.758139e+03 5.676623e-01
3.758153e+03 4.784845e-01
3.758168e+03 3.671090e-01
3.758182e+03 2.682803e-01
3.758197e+03 1.930167e-01
3.758212e+03 1.357514e-01
3.758227e+03 1.063029e-01
3.758241e+03 1.097898e-01
3.758256e+03 1.379027e-01
3.758271e+03 1.877799e-01
3.758285e+03 2.739953e-01
3.758300e+03 3.723095e-01
3.758314e+03 4.750499e-01
3.758329e+03 5.812181e-01
3.758344e+03 6.716214e-01
3.758358e+03 7.440857e-01
3.758373e+03 8.015903e-01
3.758388e+03 8.335201e-01
3.758402e+03 8.523465e-01
3.758417e+03 8.509525e-01
3.758432e+03 8.375453e-01
3.758446e+03 8.464949e-01
3.758461e+03 8.704221e-01
3.758476e+03 8.888667e-01
3.758490e+03 8.950986e-01
3.758505e+03 9.251574e-01
3.758519e+03 9.351845e-01
3.758534e+03 9.449512e-01
3.758549e+03 9.765410e-01
3.758563e+03 9.749832e-01
3.758578e+03 9.756769e-01
3.758593e+03 9.788145e-01
3.758607e+03 9.935923e-01
3.758622e+03 9.737712e-01
3.758637e+03 9.673277e-01
3.758651e+03 9.853899e-01
3.758666e+03 9.756460e-01
3.758681e+03 9.868382e-01
3.758695e+03 9.999525e-01
3.758710e+03 1.003751e+00
3.758725e+03 9.860101e-01
3.758739e+03 9.781907e-01
3.758754e+03 9.787763e-01
3.758769e+03 1.000004e+00
3.758783e+03 9.891159e-01
3.758798e+03 9.791803e-01
3.758813e+03 9.735838e-01
3.758827e+03 9.719189e-01
3.758842e+03 9.603904e-01
3.758856e+03 9.443797e-01
3.758871e+03 9.248911e-01
3.758886e+03 8.817974e-01
3.758900e+03 8.253317e-01
3.758915e+03 7.636503e-01
3.758930e+03 7.087292e-01
3.758944e+03 6.714555e-01
3.758959e+03 6.484225e-01
3.758974e+03 6.377394e-01
3.758988e+03 6.248378e-01
3.759003e+03 6.176392e-01
3.759017e+03 6.058139e-01
3.759032e+03 5.847013e-01
3.759047e+03 5.369963e-01
3.759061e+03 5.027174e-01
3.759076e+03 4.910563e-01
3.759091e+03 5.367172e-01
3.759105e+03 6.177912e-01
3.759120e+03 6.780531e-01
3.759135e+03 7.219913e-01
3.759150e+03 7.560424e-01
3.759164e+03 7.373872e-01
3.759179e+03 6.931509e-01
3.759193e+03 6.231984e-01
3.759208e+03 5.202280e-01
3.759223e+03 4.008843e-01
3.759237e+03 2.938052e-01
3.759252e+03 2.224534e-01
3.759267e+03 1.666980e-01
3.759281e+03 1.419691e-01
3.759296e+03 1.375307e-01
3.759311e+03 1.536785e-01
3.759325e+03 1.975349e-01
3.759340e+03 2.782741e-01
3.759354e+03 3.879961e-01
3.759369e+03 5.115057e-01
3.759384e+03 6.200846e-01
3.759398e+03 7.113950e-01
3.759413e+03 7.813147e-01
3.759428e+03 8.341760e-01
3.759442e+03 8.764463e-01
3.759457e+03 9.089364e-01
3.759472e+03 9.270112e-01
3.759486e+03 9.387710e-01
3.759501e+03 9.527503e-01
3.759516e+03 9.639537e-01
3.759530e+03 9.600961e-01
3.759545e+03 9.664147e-01
3.759559e+03 9.681801e-01
3.759574e+03 9.674448e-01
3.759589e+03 9.771797e-01
3.759604e+03 9.678118e-01
3.759618e+03 9.663041e-01
3.759633e+03 9.764214e-01
3.759648e+03 9.687925e-01
3.759662e+03 9.777105e-01
3.759677e+03 9.858298e-01
3.759691e+03 9.856017e-01
3.759706e+03 9.865529e-01
3.759721e+03 9.746844e-01
3.759735e+03 9.568192e-01
3.759750e+03 9.354347e-01
3.759765e+03 9.152166e-01
3.759779e+03 9.004610e-01
3.759794e+03 8.935059e-01
3.759809e+03 9.133410e-01
3.759823e+03 9.242579e-01
3.759838e+03 9.385515e-01
3.759853e+03 9.567237e-01
3.759867e+03 9.814066e-01
3.759882e+03 9.849839e-01
3.759896e+03 9.809431e-01
3.759911e+03 9.702462e-01
3.759926e+03 9.761845e-01
3.759940e+03 9.530937e-01
3.759955e+03 9.152880e-01
3.759970e+03 8.630763e-01
3.759984e+03 7.720259e-01
3.759999e+03 6.764556e-01
3.760014e+03 5.827780e-01
3.760028e+03 5.004224e-01
3.760043e+03 4.712652e-01
3.760058e+03 5.118124e-01
3.760072e+03 6.002510e-01
3.760087e+03 7.043993e-01
3.760102e+03 7.970446e-01
3.760116e+03 8.634831e-01
3.760131e+03 9.027435e-01
3.760146e+03 9.171317e-01
3.760160e+03 9.335871e-01
3.760175e+03 9.391457e-01
3.760190e+03 9.293388e-01
3.760204e+03 9.279732e-01
3.760219e+03 9.257187e-01
3.760233e+03 9.335138e-01
3.760248e+03 9.634667e-01
3.760263e+03 9.700136e-01
3.760277e+03 9.756399e-01
3.760292e+03 9.823663e-01
3.760307e+03 9.955746e-01
3.760321e+03 1.000589e+00
3.760336e+03 9.986852e-01
3.760351e+03 9.938850e-01
3.760365e+03 9.946092e-01
3.760380e+03 9.828826e-01
3.760395e+03 9.716080e-01
3.760409e+03 9.618672e-01
3.760424e+03 9.621176e-01
3.760438e+03 9.390369e-01
3.760453e+03 9.028065e-01
3.760468e+03 8.520766e-01
3.760482e+03 7.631528e-01
3.760497e+03 6.713318e-01
3.760512e+03 6.009993e-01
3.760527e+03 5.655314e-01
3.760541e+03 6.102443e-01
3.760556e+03 6.858405e-01
3.760570e+03 7.653092e-01
3.760585e+03 8.342785e-01
3.760600e+03 8.802491e-01
3.760614e+03 8.903313e-01
3.760629e+03 8.810974e-01
3.760644e+03 8.569912e-01
3.760658e+03 7.860451e-01
3.760673e+03 7.219656e-01
3.760688e+03 6.721009e-01
3.760702e+03 6.605513e-01
3.760717e+03 7.013551e-01
3.760732e+03 7.586252e-01
3.760746e+03 8.260254e-01
3.760761e+03 8.998492e-01
3.760775e+03 9.295808e-01
3.760790e+03 9.519979e-01
3.760805e+03 9.693340e-01
3.760819e+03 9.828837e-01
3.760834e+03 9.828870e-01
3.760849e+03 9.730569e-01
3.760863e+03 9.561793e-01
3.760878e+03 9.608122e-01
3.760893e+03 9.401478e-01
3.760907e+03 9.274973e-01
3.760922e+03 9.293400e-01
3.760937e+03 9.400074e-01
3.760951e+03 9.389349e-01
3.760966e+03 9.449984e-01
3.760981e+03 9.654551e-01
3.760995e+03 9.691495e-01
3.761010e+03 9.717972e-01
3.761025e+03 9.723234e-01
3.761039e+03 9.698361e-01
3.761054e+03 9.683138e-01
3.761069e+03 9.593685e-01
3.761083e+03 9.504272e-01
3.761098e+03 9.471142e-01
3.761112e+03 9.452096e-01
3.761127e+03 9.402832e-01
3.761142e+03 9.296925e-01
3.761156e+03 9.070507e-01
3.761171e+03 8.634483e-01
3.761186e+03 8.291914e-01
3.761200e+03 7.880794e-01
3.761215e+03 7.101049e-01
3.761230e+03 6.079760e-01
3.761244e+03 4.894690e-01
